TITLE	emis-Cu(I)-G1
DATA TYPE	FLUORESCENCE SPECTRUM
ORIGIN	JASCO
OWNER
DATE	22/02/15
TIME	17:27:45
SPECTROMETER/DATA SYSTEM
LOCALE	3082
RESOLUTION
DELTAX	2
XUNITS	NANOMETERS
YUNITS	INTENSITY
FIRSTX	  385,0000
LASTX	  651,0000
NPOINTS	     134
FIRSTY	   324,64471
MAXY	  2870,29614
MINY	    50,91053
XYDATA
385,0000	324,645
387,0000	348,982
389,0000	411,281
391,0000	470,171
393,0000	498,159
395,0000	496,995
397,0000	495,248
399,0000	505,456
401,0000	539,879
403,0000	580,358
405,0000	632,667
407,0000	680,024
409,0000	722,707
411,0000	776,326
413,0000	843,872
415,0000	931,938
417,0000	1003,37
419,0000	1066,93
421,0000	1113,55
423,0000	1135,77
425,0000	1162,76
427,0000	1169,86
429,0000	1192,51
431,0000	1219
433,0000	1258,72
435,0000	1313,98
437,0000	1387,05
439,0000	1433,18
441,0000	1510,74
443,0000	1574,09
445,0000	1660,72
447,0000	1756,18
449,0000	1819,95
451,0000	1909,94
453,0000	1981,67
455,0000	2068,35
457,0000	2151,2
459,0000	2232
461,0000	2320,75
463,0000	2380,44
465,0000	2449,47
467,0000	2518,07
469,0000	2581,09
471,0000	2633,72
473,0000	2682,01
475,0000	2734,61
477,0000	2781,53
479,0000	2814,91
481,0000	2859,6
483,0000	2853,41
485,0000	2858,12
487,0000	2870,3
489,0000	2841,49
491,0000	2834,56
493,0000	2799,27
495,0000	2759,02
497,0000	2704,1
499,0000	2656,51
501,0000	2582,13
503,0000	2533,18
505,0000	2473,93
507,0000	2394,49
509,0000	2332,1
511,0000	2263,25
513,0000	2182,14
515,0000	2097,16
517,0000	2030,09
519,0000	1943,3
521,0000	1871,17
523,0000	1800,94
525,0000	1719,56
527,0000	1659,92
529,0000	1581,2
531,0000	1516,5
533,0000	1446,6
535,0000	1371,44
537,0000	1312,51
539,0000	1236,42
541,0000	1174,1
543,0000	1115,55
545,0000	1053,25
547,0000	988,101
549,0000	935,85
551,0000	874,427
553,0000	821,006
555,0000	763,465
557,0000	703,434
559,0000	654,055
561,0000	602,481
563,0000	557,89
565,0000	504,674
567,0000	458,687
569,0000	428,763
571,0000	388,49
573,0000	354,069
575,0000	324,128
577,0000	294,878
579,0000	272,228
581,0000	246,23
583,0000	228,908
585,0000	207,773
587,0000	188,109
589,0000	177,956
591,0000	164,873
593,0000	149,236
595,0000	138,5
597,0000	127,822
599,0000	120,653
601,0000	109,634
603,0000	101,655
605,0000	94,1393
607,0000	88,9175
609,0000	82,1839
611,0000	76,6965
613,0000	68,387
615,0000	66,4718
617,0000	61,9552
619,0000	57,4094
621,0000	56,3888
623,0000	53,5089
625,0000	50,9105
627,0000	52,3539
629,0000	50,9324
631,0000	52,692
633,0000	53,7437
635,0000	53,8519
637,0000	55,4399
639,0000	61,03
641,0000	64,6197
643,0000	69,3001
645,0000	72,5546
647,0000	77,4245
649,0000	79,8587
651,0000	85,1941

##### Extended Information
[Comments]
Sample name	emis-Cu(I)-G1
Comment
User
Division
Company	UM

[Detailed Information]
Creation date	15/02/2022 18:27

Data array type	Linear data array
Horizontal axis	Wavelength [nm]
Vertical axis	Int.
Start	385 nm
End	651 nm
Data interval	2 nm
Data points	134

[Measurement Information]
Model name	FP-8200
Serial No.	D038861448
  Ex filter holder	None
  Em filter holder	None

Accessory	SCE-845
Accessory S/N	D038861448

Measurement date	15/02/2022 18:27

Mode	Emission
Ex bandwidth	5 nm
Em bandwidth	5 nm
Response	0.2 sec
Sensitivity	High
Measurement range	385 - 651 nm
Data interval	2 nm
Ex wavelength	365.0 nm
Scan speed	200 nm/min
No. of cycles	1
Auto gain	Off
Shutter control	Open only for measurement
Light source	Xe lamp
Filter	Not used
Auto Zero control	Off
Blank correction	Off
